0.439883
0.438123
0.447507
0.451613
0.445748
0.443402
0.448094
0.446921
0.445748
0.443402
0.448680
0.455718
0.460997
0.483284
0.493255
0.498534
0.510850
0.537243
0.533724
0.534897
0.526100
0.509677
0.495601
0.472141
0.456892
0.454545
0.464516
0.471554
0.477419
0.467449
0.465103
0.598827
0.598827
0.598827
0.598827
0.433431
0.257478
0.424633
0.465689
0.468622
0.468622
0.482698
0.497947
0.500293
0.509091
0.519648
0.526686
0.548387
0.562463
0.580645
0.598827
0.598827
0.598827
0.598827
0.598827
0.598827
0.598827
0.598827
0.575367
0.513197
0.451026
0.413490
0.387683
0.357771
0.357185
0.354252
0.356012
0.354252
0.354839
0.363050
0.365982
0.377713
0.384164
0.384751
0.392962
0.394721
0.398827
0.396481
0.392375
0.396481
0.395308
0.396481
0.402933
0.396481
0.403519
0.402346
0.407625
0.414076
0.414076
0.407625
0.416422
0.436950
0.452199
0.456305
0.474487
0.499120
0.493255
0.497361
0.473314
0.455132
0.446334
0.421114
0.415836
0.414663
0.417009
0.419941
0.426393
0.414663
0.381818
0.598827
0.598827
0.598827
0.598827
0.392962
0.211730
0.393548
0.434604
0.429912
0.431085
0.440469
0.449267
0.465689
0.477419
0.489736
0.501466
0.519648
0.536657
0.557771
0.581818
0.598827
0.598827
0.598827
0.598827
0.598827
0.598827
0.598827
0.573021
0.502053
0.448680
0.409971
0.382405
0.368328
0.365396
0.357185
0.358358
0.358944
0.361290
0.374780
0.377713
0.381818
0.387097
0.394135
0.392962
0.395894
0.392375
0.386510
0.384751
0.388856
0.394135
0.396481
0.400000
0.404106
0.402933
0.404106
0.404106
0.405865
0.408211
0.409384
0.409971
0.412903
0.410557
0.415249
0.420528
0.428153
0.449267
0.454545
0.464516
0.496774
0.498534
0.492082
0.482111
0.462170
0.463343
0.434018
0.424633
0.421114
0.415249
0.424633
0.426393
0.429326
0.396481
0.581232
0.598827
0.598827
0.598827
0.391202
0.205279
0.381232
0.435191
0.443402
0.453372
0.455132
0.468622
0.479765
0.485631
0.493842
0.508504
0.524927
0.541936
0.564223
0.585924
0.598827
0.598827
0.598827
0.598827
0.598827
0.598827
0.598827
0.598827
0.534897
0.480938
0.439883
0.411144
0.392375
0.377713
0.368915
0.366569
0.372434
0.382991
0.387683
0.388856
0.394135
0.398240
0.397067
0.400000
0.400587
0.400587
0.399413
0.398240
0.399413
0.397654
0.404106
0.403519
0.405279
0.401173
0.407038
0.402933
0.404692
0.403519
0.404106
0.407625
0.410557
0.410557
0.414663
0.417009
0.411730
0.422287
0.446334
0.449267
0.459824
0.473314
0.500880
0.499707
0.502639
0.477419
0.466862
0.453372
0.426393
0.416422
0.422874
0.417595
0.418768
0.426393
0.410557
0.448094
0.598827
0.598827
0.598827
0.598827
0.205279
0.249267
0.394135
0.432258
0.435191
0.436950
0.445161
0.453372
0.465103
0.477419
0.493842
0.500293
0.520821
0.540176
0.560117
0.583578
0.598827
0.598827
0.598827
0.598827
0.598827
0.598827
0.598827
0.547801
0.492082
0.442229
0.400000
0.377713
0.358944
0.356598
0.356012
0.353079
0.360117
0.361290
0.361290
0.365396
0.373021
0.381232
0.385337
0.389443
0.390616
0.390616
0.394721
0.392375
0.392375
0.395308
0.388856
0.395308
0.396481
0.403519
0.405279
0.408798
0.404692
0.402933
0.411144
0.443988
0.446921
0.456892
0.468622
0.495015
0.487977
0.493842
0.461584
0.458651
0.438123
0.414663
0.410557
0.407038
0.411144
0.413490
0.412317
0.394721
0.480352
0.598827
0.598827
0.598827
0.598827
0.163636
0.314956
0.418768
0.432845
0.430499
0.439296
0.449267
0.449853
0.465689
0.484457
0.502053
0.517302
0.527273
0.554252
0.582991
0.598827
0.598827
0.598827
0.598827
0.598827
0.598827
0.598827
0.598827
0.549560
0.479765
0.431085
0.400587
0.377713
0.372434
0.366569
0.371261
0.364809
0.370674
0.375367
0.378886
0.385924
0.395308
0.399413
0.402933
0.402346
0.400000
0.405279
0.402346
0.405865
0.406452
0.403519
0.406452
0.405279
0.402933
0.405279
0.412317
0.411144
0.418182
0.417009
0.419941
0.416422
0.420528
0.438123
0.452786
0.462170
0.470968
0.498534
0.501466
0.500293
0.483871
0.463343
0.456305
0.429912
0.425806
0.424047
0.422287
0.422874
0.428153
0.422287
0.418768
0.598827
0.598827
0.598827
0.598827
0.241056
0.248094
0.407038
0.431085
0.438123
0.443988
0.449267
0.462170
0.469208
0.481525
0.499707
0.513197
0.527859
0.539589
0.561290
0.592375
0.598827
0.598827
0.598827
0.598827
0.598827
0.598827
0.598827
0.575953
0.509091
0.455132
0.420528
0rr0.462757
0.477419
0.502053
0.520235
0.550147
0.589443
0.598827
0.598827
0.598827
0.598827
0.598827
0.578886
0.527859
0.475660
0.426979
0.382991
0.361290
0.345455
0.338416
0.334897
0.346041
0.346041
0.349560
0.358358
0.365396
0.373021
0.385337
0.407625
0.417595
0.376540
0.357771
0.382991
0.382991
0.384751
0.384751
0.385924
0.382991
0.387097
0.404692
0.397067
0.396481
0.390029
0.401173
0.400000
0.424047
0.441642
0.442229
0.463343
0.485044
0.478006
0.493842
0.471554
0.457478
0.439296
0.417595
0.432258
0.428153
0.415836
0.429326
0.406452
0.381818
0.441642
0.598827
0.598827
0.598827
0.598827
0.155425
0.266276
0.395308
0.407625
0.414663
0.420528
0.431672
0.445161
0.445748
0.462757
0.477419
0.492082
0.510850
0.537243
0.555425
0.582405
0.598827
0.598827
0.598827
0.598827
0.598827
0.598827
0.598827
0.539003
0.485044
0.442815
0.413490
0.399413
0.378886
0.378299
0.374780
0.377126
0.371261
0.375367
0.390616
0.393548
0.390029
0.407038
0.407038
0.407625
0.404692
0.408798
0.411144
0.413490
0.415836
0.409971
0.413490
0.421701
0.421701
0.421114
0.428739
0.434018
0.435191
0.456305
0.466276
0.479179
0.481525
0.510850
0.507918
0.513783
0.491496
0.462170
0.449853
0.419941
0.421701
0.422287
0.422874
0.421701
0.423460
0.403519
0.458651
0.598827
0.598827
0.598827
0.598827
0.172434
0.273900
0.411144
0.427566
0.431672
0.436364
0.443988
0.453959
0.465689
0.473314
0.489736
0.497947
0.514370
0.536070
0.554839
0.581818
0.598827
0.598827
0.598827
0.598827
0.598827
0.598827
0.593548
0.543695
0.481525
0.438123
0.405279
0.390616
0.376540
0.377126
0.375953
0.369501
0.375953
0.387097
0.388270
0.392375
0.388856
0.392962
0.385924
0.385924
0.394721
0.401760
0.397654
0.398827
0.394721
0.407038
0.414076
0.412317
0.411730
0.412317
0.408798
0.411730
0.427566
0.443402
0.451026
0.454545
0.489736
0.490909
0.493255
0.482111
0.452199
0.441642
0.417595
0.409971
0.416422
0.418182
0.418182
0.419941
0.408798
0.463343
0.598827
0.598827
0.598827
0.598827
0.178886
0.271554
0.402346
0.427566
0.428739
0.438123
0.452199
0.458065
0.458065
0.469208
0.483871
0.507918
0.516129
0.539003
0.567742
0.582405
0.598827
0.598827
0.598827
0.598827
0.598827
0.598827
0.585337
0.525513
0.478006
0.441642
0.408211
0.398240
0.385924
0.379472
0.377713
0.365982
0.371848
0.384751
0.382405
0.378299
0.387683
0.390616
0.394721
0.400000
0.397067
0.398827
0.405865
0.400587
0.400000
0.399413
0.407625
0.399413
0.407625
0.431672
0.428739
0.449267
0.471554
0.494428
0.481525
0.485044
0.465689
0.450440
0.425806
0.414663
0.412317
0.409971
0.412903
0.415836
0.405865
0.395894
0.568328
0.598827
0.598827
0.598827
0.432258
0.137243
0.285631
0.401173
0.414076
0.412903
0.426393
0.437537
0.446921
0.452199
0.464516
0.475660
0.486804
0.504399
0.540176
0.557185
0.576540
0.592962
0.598827
0.598827
0.598827
0.598827
0.586510
0.542522
0.487390
0.442815
0.403519
0.378886
0.360704
0.356598
0.362463
0.354839
0.358358
0.370674
0.366569
0.360704
0.381232
0.384164
0.381818
0.382405
0.393548
0.391789
0.397067
0.394721
0.398827
0.395308
0.403519
0.400000
0.412903
0.427566
0.433431
0.449267
0.466862
0.479765
0.477419
0.480352
0.451026
0.443402
0.424633
0.402933
0.404692
0.407038
0.411144
0.412317
0.400587
0.402933
0.598827
0.598827
0.598827
0.598827
0.221114
0.221114
0.381818
0.411144
0.422874
0.424633
0.428739
0.438123
0.443988
0.463343
0.478006
0.486804
0.506158
0.524927
0.545455
0.568915
0.597654
0.598827
0.598827
0.598827
0.598827
0.598827
0.578299
0.518475
0.459824
0.419941
0.389443
0.374780
0.361290
0.362463
0.352493
0.354839
0.363050
0.365396
0.361877
0.371261
0.382405
0.382991
0.391202
0.386510
0.387683
0.391202
0.385337
0.394135
0.389443
0.388270
0.392375
0.394135
0.401173
0.421701
0.433431
0.446921
0.451613
0.477419
0.469795
0.479179
0.459238
0.445161
0.435777
0.416422
0.395308
0.401760
0.407625
0.407038
0.411144
0.391789
0.444575
0.598827
0.598827
0.598827
0.598827
0.158358
0.275073
0.392962
0.397654
0.407038
0.424047
0.425806
0.438123
0.448094
0.459824
0.473900
0.487977
0.507918
0.536657
0.557771
0.587683
0.598827
0.598827
0.598827
0.598827
0.598827
0.598827
0.577126
0.527859
0.470381
0.426979
0.385924
0.382405
0.380645
0.375953
0.370674
0.369501
0.371261
0.374780
0.373607
0.385337
0.389443
0.403519
0.402933
0.396481
0.396481
0.400587
0.401760
0.402346
0.395894
0.407625
0.400587
0.408211
0.413490
0.409384
0.415249
0.415249
0.420528
0.428739
0.431085
0.453959
0.468622
0.485631
0.475073
0.477419
0.453959
0.446921
0.416422
0.408798
0.402933
0.404692
0.411144
0.415249
0.415249
0.393548
0.530205
0.598827
0.598827
0.598827
0.529619
0.157771
0.333724
0.408211
0.414663
0.418182
0.422874
0.428153
0.438123
0.452199
0.460997
0.484457
0.493255
0.512024
0.533724
0.549560
0.579472
0.598827
0.598827
0.598827
0.598827
0.598827
0.598827
0.554252
0.509091
0.455718
0.417595
0.379472
0.366569
0.362463
0.354839
0.356012
0.360704
0.358944
0.367742
0.376540
0.381818
0.387683
0.385337
0.389443
0.390029
0.398240
0.396481
0.402933
0.401173
0.398827
0.397067
0.398240
0.404106
0.405279
0.407625
0.411144
0.418182
0.409971
0.411730
0.417595
0.421701
0.428153
0.436364
0.434604
0.444575
0.442229
0.458065
0.470381
0.480352
0.476833
0.475660
0.481525
0.453959
0.456892
0.432845
0.411730
0.419941
0.409971
0.402346
0.408211
0.416422
0.394135
0.529032
0.598827
0.598827
0.598827
0.598827
0.154252
0.300293
0.390616
0.409384
0.416422
0.409971
0.421701
0.431085
0.452786
0.463343
0.457478
0.468035
0.501466
0.507918
0.526100
0.563636
0.598827
0.598827
0.598827
0.598827
0.598827
0.598827
0.598827
0.579472
0.526686
0.448680
0.428153
0.413490
0.393548
0.390029
0.405865
0.417595
0.375367
0.356598
0.356598
0.391789
0.350147
0.349560
0.368915
0.373021
0.374780
0.366569
0.384751
0.378886
0.376540
0.381232
0.373607
0.384164
0.378299
0.374194
0.377713
0.384164
0.395308
0.388270
0.396481
0.399413
0.398827
0.402346
0.412903
0.417595
0.420528
0.420528
0.436950
0.446334
0.464516
0.472141
0.495601
0.507331
0.504985
0.498534
0.495015
0.483871
0.442229
0.423460
0.427566
0.423460
0.425806
0.432258
0.436950
0.423460
0.409971
0.598827
0.598827
0.598827
0.598827
0.354252
0.217009
0.404692
0.439296
0.428739
0.434018
0.453959
0.458651
0.465103
0.481525
0.500880
0.502053
0.507918
0.532551
0.556598
0.584164
0.598827
0.598827
0.598827
0.598827
0.598827
0.598827
0.598827
0.570675
0.502053
0.452786
0.421701
0.390616
0.380059
0.364809
0.373607
0.374780
0.364223
0.370674
0.379472
0.389443
0.391789
0.389443
0.397654
0.400587
0.402933
0.397654
0.397654
0.402346
0.411144
0.407625
0.409384
0.402346
0.404106
0.398240
0.416422
0.414076
0.415249
0.418768
0.414663
0.412317
0.426979
0.434604
0.428739
0.428153
0.428153
0.441056
0.437537
0.442229
0.441642
0.444575
0.433431
0.437537
0.447507
0.446921
0.446334
0.435191
0.440469
0.452786
0.455132
0.446334
0.449267
0.448680
0.456892
0.475073
0.476246
0.475073
0.484457
0.509091
0.510264
0.506158
0.499120
0.482111
0.495601
0.456305
0.438710
0.437537
0.436950
0.430499
0.432845
0.434018
0.441642
0.428739
0.488563
0.598827
0.598827
0.598827
0.598827
0.195894
0.302053
0.417595
0.438710
0.443402
0.448094
0.460411
0.470381
0.480352
0.488563
0.487390
0.508504
0.535484
0.536070
0.559531
0.582405
0.598827
0.598827
0.598827
0.598827
0.598827
0.598827
0.598827
0.558358
0.497361
0.446921
0.397067
0.377126
0.361290
0.358944
0.343109
0.343109
0.344868
0.347214
0.342522
0.358944
0.358358
0.361290
0.356012
0.360704
0.366569
0.368915
0.365982
0.374780
0.373021
0.369501
0.378299
0.382405
0.378299
0.376540
0.381232
0.385337
0.387097
0.392375
0.384751
0.385337
0.395308
0.400587
0.401173
0.391789
0.405279
0.411144
0.411730
0.402346
0.414076
0.420528
0.429912
0.449853
0.464516
0.464516
0.476246
0.486217
0.478592
0.470968
0.459824
0.454545
0.424047
0.415249
0.421701
0.412903
0.419355
0.421114
0.428153
0.408211
0.445161
0.598827
0.598827
0.598827
0.598827
0.185337
0.287977
0.415249
0.432258
0.428153
0.441056
0.453372
0.461584
0.473900
0.483871
0.501466
0.505572
0.525513
0.548387
0.568915
0.598827
0.598827
0.598827
0.598827
0.598827
0.598827
0.598827
0.598827
0.558358
0.501466
0.448094
0.414076
0.391202
0.380059
0.361877
0.379472
0.377126
0.372434
0.370674
0.374780
0.380059
0.377126
0.393548
0.385337
0.392375
0.394135
0.393548
0.398240
0.391202
0.391789
0.396481
0.406452
0.401760
0.403519
0.412317
0.411144
0.403519
0.409971
0.409384
0.395308
0.415249
0.421114
0.416422
0.413490
0.411144
0.417009
0.422287
0.424047
0.425220
0.426393
0.429912
0.429912
0.438123
0.440469
0.449267
0.448094
0.462170
0.478006
0.492082
0.488563
0.519648
0.518475
0.513783
0.510850
0.485631
0.480352
0.456305
0.446334
0.441056
0.438123
0.449267
0.449267
0.444575
0.415249
0.598827
0.598827
0.598827
0.598827
0.438710
0.198827
0.384164
0.438123
0.454545
0.457478
0.468035
0.475660
0.478592
0.488563
0.497361
0.519062
0.534897
0.539003
0.556012
0.584164
0.598827
0.598827
0.598827
0.598827
0.598827
0.598827
0.598827
0.598827
0.551906
0.491496
0.449267
0.410557
0.389443
0.385924
0.380645
0.373607
0.371848
0.377713
0.374194
0.375367
0.379472
0.387683
0.392375
0.392375
0.387683
0.387097
0.401173
0.397067
0.404106
0.394721
0.401760
0.401173
0.402346
0.391789
0.401173
0.403519
0.402933
0.406452
0.405279
0.405865
0.405865
0.400587
0.408798
0.406452
0.410557
0.419355
0.409384
0.415836
0.422287
0.418768
0.419941
0.425220
0.422287
0.442229
0.453372
0.474487
0.480938
0.497947
0.501466
0.500293
0.486804
0.463343
0.453959
0.436364
0.425806
0.419355
0.417009
0.415836
0.415249
0.419355
0.449267
0.598827
0.598827
0.598827
0.598827
0.169501
0.256305
0.409971
0.435191
0.436950
0.435777
0.449267
0.455132
0.469208
0.479179
0.488563
0.507331
0.518475
0.539589
0.558944
0.581232
0.598827
0.598827
0.598827
0.598827
0.598827
0.598827
0.598827
0.596481
0.529619
0.470968
0.428739
0.398240
0.387683
0.377713
0.375367
0.376540
0.374780
0.378886
0.389443
0.390616
0.396481
0.392962
0.402346
0.398827
0.390029
0.404692
0.397067
0.397654
0.405865
0.411144
0.415836
0.401173
0.412317
0.407625
0.408211
0.421114
0.415249
0.422287
0.421114
0.422287
0.425220
0.435191
0.432845
0.432845
0.433431
0.428739
0.432845
0.451613
0.463343
0.470381
0.483284
0.507331
0.512024
0.514956
0.509677
0.478006
0.469795
0.447507
0.426393
0.426979
0.421701
0.431672
0.429912
0.436364
0.489736
0.598827
0.598827
0.598827
0.598827
0.175953
0.297361
0.425220
0.442229
0.441642
0.441642
0.451613
0.452786
0.462757
0.463930
0.482111
0.508504
0.517302
0.531378
0.547214
0.571261
0.595894
0.598827
0.598827
0.598827
0.598827
0.598827
0.598827
0.563050
0.510264
0.456892
0.415836
0.394135
0.364223
0.356598
0.361877
0.358358
0.361877
0.360117
0.350147
0.366569
0.361877
0.370088
0.371848
0.365396
0.374780
0.368328
0.375953
0.378886
0.372434
0.377713
0.383578
0.375367
0.385924
0.392962
0.382991
0.388270
0.390616
0.397654
0.411144
0.417009
0.433431
0.431085
0.455718
0.449853
0.449853
0.425220
0.425806
0.421701
0.398827
0.388856
0.391202
0.396481
0.418182
0.398827
0.409384
0.598827
0.598827
0.598827
0.598827
0.385337
0.147801
0.300293
0.394721
0.413490
0.414076
0.419355
0.427566
0.435777
0.452786
0.473314
0.485631
0.519648
0.549560
0.563636
0.585924
0.598827
0.598827
0.598827
0.598827
0.598827
0.598827
0.560704
0.475073
0.405279
0.346041
0.302639
0.287390
0.289150
0.290323
0.269208
0.233431
0.221701
0.257478
0.283284
0.272727
0.204106
0.143695
0.241056
0.336657
0.388270
0.390029
0.378299
0.285631
0.271554
0.294428
0.294428
0.321994
0.363050
0.439883
0.516129
0.500880
0.478006
0.492082
0.524340
0.531378
0.530792
0.542522
0.538416
0.537243
0.507331
0.494428
0.479765
0.485044
0.484457
0.495015
0.469208
0.577126
0.598827
0.598827
0.598827
0.598827
0.188270
0.188856
0.024633
0.004692
0.216422
0.373607
0.464516
0.499120
0.511437
0.531378
0.539003
0.560117
0.567155
0.578299
0.580059
0.598827
0.598827
0.598827
0.598827
0.598827
0.598827
0.598827
0.598827
0.598240
0.561290
0.530205
0.498534
0.465689
0.457478
0.445161
0.442229
0.431085
0.420528
0.427566
0.431085
0.434604
0.448094
0.450440
0.460411
0.470968
0.463930
0.470968
0.477419
0.462757
0.466276
0.462757
0.454545
0.446921
0.438710
0.454545
0.460997
0.474487
0.486217
0.503226
0.492082
0.499707
0.484457
0.468035
0.449853
0.424633
0.421701
0.428153
0.428153
0.426393
0.418768
0.388856
0.488563
0.598827
0.598827
0.598827
0.598827
0.119062
0.255718
0.368915
0.392375
0.399413
0.401173
0.419941
0.428739
0.448094
0.464516
0.478592
0.490909
0.514956
0.529032
0.537830
0.567742
0.589443
0.598827
0.598827
0.598827
0.598827
0.598827
0.557185
0.499120
0.441642
0.401173
0.369501
0.360704
0.346628
0.338416
0.344282
0.341935
0.350147
0.358358
0.351906
0.361877
0.373021
0.377713
0.380059
0.400000
0.394135
0.396481
0.394135
0.397067
0.394135
0.403519
0.407038
0.410557
0.391202
0.415836
0.418182
0.423460
0.449267
0.441642
0.466862
0.486217
0.497947
0.486217
0.499707
0.469795
0.464516
0.449853
0.445161
0.455132
0.444575
0.461584
0.460411
0.448094
0.446921
0.598827
0.598827
0.598827
0.598827
0.446921
0.177713
0.352493
0.411730
0.415836
0.418182
0.436364
0.444575
0.451613
0.471554
0.472727
0.489736
0.506745
0.524927
0.543109
0.562463
0.596481
0.598827
0.598827
0.598827
0.598827
0.598827
0.598827
0.557771
0.493842
0.437537
0.402933
0.375953
0.359531
0.370088
0.367155
0.364809
0.360704
0.363636
0.366569
0.368915
0.370674
0.367155
0.371848
0.366569
0.367155
0.364223
0.365396
0.361877
0.356012
0.332551
0.348387
0.373607
0.374194
0.374194
0.384751
0.387097
0.398827
0.409971
0.431085
0.429326
0.430499
0.405865
0.384751
0.349560
0.348974
0.361877
0.372434
0.367742
0.370674
0.353079
0.316716
0.545455
0.598827
0.598827
0.598827
0.411144
0.082698
0.289736
0.358358
0.365396
0.367155
0.385337
0.400000
0.411144
0.435191
0.449267
0.466862
0.478592
0.497361
0.523167
0.548974
0.568915
0.591789
0.598827
0.598827
0.598827
0.598827
0.583578
0.526686
0.466276
0.419355
0.380645
0.352493
0.339003
0.321408
0.339589
0.338416
0.347801
0.351320
0.354252
0.356012
0.364223
0.375953
0.377713
0.384164
0.391789
0.384164
0.379472
0.386510
0.382991
0.385337
0.387097
0.391789
0.395308
0.403519
0.411730
0.441056
0.452199
0.466862
0.496188
0.488563
0.493255
0.475660
0.455718
0.448680
0.419355
0.414076
0.419941
0.415836
0.420528
0.430499
0.412903
0.411730
0.598827
0.598827
0.598827
0.598827
0.409971
0.285631
0.442815
0.468622
0.453959
0.452786
0.471554
0.471554
0.472727
0.508504
0.521408
0.544282
0.560117
0.569501
0.597654
0.598827
0.598827
0.598827
0.598827
0.598827
0.598827
0.598827
0.598827
0.569501
0.521408
0.477419
0.449267
0.426979
0.400000
0.395308
0.398240
0.390616
0.385337
0.395308
0.398827
0.391202
0.407038
0.415249
0.408211
0.408798
0.417009
0.409384
0.401760
0.399413
0.378886
0.382405
0.375953
0.358358
0.357771
0.343695
0.341935
0.350147
0.352493
0.351320
0.364223
0.363050
0.363050
0.382991
0.418182
0.408211
0.429912
0.422874
0.413490
0.397067
0.388856
0.380645
0.385337
0.383578
0.401760
0.399413
0.373021
0.449853
0.598827
0.598827
0.598827
0.598827
0.190029
0.252786
0.411144
0.452786
0.436364
0.465103
0.470381
0.482111
0.502639
0.526686
0.541936
0.558358
0.565396
0.559531
0.581818
0.598827
0.598827
0.598827
0.598827
0.598827
0.598827
0.598827
0.595308
0.540176
0.496188
0.445161
0.418182
0.401760
0.384751
0.381232
0.374780
0.361290
0.359531
0.366569
0.356012
0.357771
0.365396
0.363050
0.357185
0.356598
0.350733
0.348387
0.343695
0.334897
0.325513
0.330205
0.329032
0.328446
0.314956
0.314369
0.341349
0.346628
0.354839
0.361877
0.383578
0.397067
0.430499
0.445748
0.470968
0.462170
0.466276
0.455718
0.444575
0.431672
0.410557
0.412903
0.428153
0.434018
0.435191
0.449853
0.418768
0.564809
0.598827
0.598827
0.598827
0.598827
0.263343
0.353666
0.477419
0.487977
0.488563
0.490909
0.504985
0.514370
0.519062
0.523167
0.541936
0.553666
0.563050
0.564223
0.584164
0.598827
0.598827
0.598827
0.598827
0.598827
0.598827
0.598827
0.562463
0.515543
0.462170
0.426393
0.391789
0.389443
0.383578
0.385924
0.390029
0.370088
0.367155
0.359531
0.355425
0.360704
0.361877
0.379472
0.395894
0.407625
0.409384
0.409971
0.407625
0.396481
0.397067
0.412903
0.411144
0.405865
0.403519
0.405865
0.407038
0.410557
0.411144
0.426393
0.421701
0.431085
0.456305
0.466276
0.478006
0.507331
0.509091
0.506158
0.493842
0.468622
0.459824
0.443402
0.420528
0.417595
0.425220
0.437537
0.429326
0.425806
0.413490
0.598827
0.598827
0.598827
0.598827
0.429912
0.200000
0.384751
0.424633
0.431085
0.445161
0.455718
0.449267
0.453372
0.478592
0.484457
0.490909
0.510850
0.533138
0.540176
0.577126
0.598240
0.598827
0.598827
0.598827
0.598827
0.598827
0.567155
0.509091
0.445748
0.398240
0.375953
0.347214
0.331378
0.324927
0.315543
0.317889
0.320235
0.330205
0.336657
0.337830
0.344868
0.360117
0.369501
0.372434
0.378886
0.377126
0.374194
0.364809
0.366569
0.375953
0.373021
0.364223
0.368915
0.385337
0.381232
0.393548
0.395308
0.400000
0.401173
0.398240
0.390616
0.414663
0.441642
0.443988
0.452786
0.470381
0.475073
0.463343
0.468035
0.443402
0.438123
0.412317
0.395894
0.397067
0.395894
0.394135
0.408798
0.404692
0.365982
0.585924
0.598827
0.598827
0.598827
0.456305
0.161290
0.352493
0.443988
0.436950
0.421114
0.422874
0.422874
0.438710
0.441056
0.443988
0.478006
0.499120
0.516129
0.545455
0.569501
0.597654
0.598827
0.598827
0.598827
0.598827
0.598827
0.598827
0.560704
0.495015
0.447507
0.404692
0.377126
0.350733
0.344282
0.332551
0.323167
0.325513
0.322581
0.334311
0.344868
0.360704
0.375953
0.378886
0.378886
0.374780
0.382405
0.384751
0.380059
0.377126
0.374194
0.377126
0.377126
0.375953
0.385924
0.378299
0.387097
0.383578
0.392375
0.382405
0.405865
0.409971
0.425806
0.445161
0.471554
0.464516
0.476246
0.453372
0.435191
0.428153
0.402346
0.397654
0.399413
0.402933
0.411730
0.421114
0.381818
0.480938
0.598827
0.598827
0.598827
0.598827
0.147214
0.310264
0.415249
0.426979
0.426979
0.433431
0.438710
0.451026
0.461584
0.473314
0.487977
0.500880
0.517302
0.540176
0.556012
0.589443
0.598827
0.598827
0.598827
0.598827
0.598827
0.598827
0.588856
0.516716
0.472141
0.427566
0.401760
0.381818
0.374194
0.367155
0.372434
0.370088
0.374194
0.374780
0.380645
0.387097
0.392375
0.395894
0.395308
0.395308
0.396481
0.382991
0.391789
0.387097
0.391789
0.390616
0.392962
0.391789
0.394135
0.395894
0.392962
0.401173
0.395894
0.398240
0.404692
0.420528
0.435191
0.453959
0.461584
0.482111
0.475660
0.484457
0.449267
0.441642
0.425220
0.412317
0.411730
0.407038
0.402933
0.408798
0.407038
0.383578
0.592375
0.598827
0.598827
0.598827
0.371848
0.158944
0.351320
0.414663
0.411730
0.415249
0.423460
0.437537
0.445161
0.451613
0.463930
0.477419
0.485631
0.505572
0.529619
0.554252
0.577126
0.598827
0.598827
0.598827
0.598827
0.598827
0.598827
0.560704
0.504399
0.453372
0.421701
0.390616
0.381232
0.384751
0.380645
0.374780
0.384751
0.390029
0.388270
0.395894
0.411144
0.409384
0.411730
0.408211
0.412317
0.404692
0.406452
0.413490
0.420528
0.415249
0.412903
0.404106
0.407625
0.422874
0.448680
0.439883
0.460411
0.492669
0.491496
0.487390
0.487390
0.456305
0.454545
0.422287
0.417595
0.409384
0.408798
0.409384
0.409384
0.385924
0.458065
0.598827
0.598827
0.598827
0.598827
0.154252
0.295015
0.414663
0.414076
0.418182
0.431672
0.441056
0.442229
0.440469
0.448094
0.473900
0.494428
0.510264
0.531378
0.552493
0.572434
0.598827
0.598827
0.598827
0.598827
0.598827
0.598827
0.564223
0.500880
0.442815
0.407625
0.383578
0.369501
0.364809
0.379472
0.373607
0.373021
0.381818
0.379472
0.384751
0.390616
0.395894
0.398240
0.407625
0.428739
0.441056
0.441056
0.451026
0.446921
0.426979
0.436364
0.443402
0.443402
0.450440
0.462170
0.475073
0.477419
0.479765
0.476246
0.438710
0.434604
0.417595
0.390616
0.384164
0.378886
0.379472
0.382405
0.360704
0.421701
0.598827
0.598827
0.598827
0.598827
0.100880
0.175953
0.335484
0.374194
0.367742
0.363636
0.379472
0.391789
0.402346
0.414663
0.432845
0.442229
0.462170
0.488563
0.499120
0.519648
0.563050
0.589443
0.595308
0.598827
0.598827
0.582405
0.531965
0.484457
0.435777
0.405865
0.384164
0.360704
0.354839
0.355425
0.365982
0.361877
0.370674
0.381232
0.390616
0.397654
0.409384
0.400587
0.407625
0.420528
0.415836
0.418182
0.428153
0.422874
0.419355
0.417009
0.441056
0.441642
0.458065
0.467449
0.496188
0.489150
0.484457
0.491496
0.456892
0.452786
0.422287
0.413490
0.411144
0.412903
0.409971
0.406452
0.392375
0.463930
0.598827
0.598827
0.598827
0.598827
0.138416
0.225806
0.364223
0.388270
0.387097
0.397067
0.408211
0.417595
0.425806
0.449267
0.456305
0.468035
0.492082
0.514956
0.539003
0.576540
0.598827
0.598827
0.598827
0.598827
0.598827
0.598827
0.554839
0.495015
0.444575
0.406452
0.378886
0.360704
0.351320
0.344868
0.360704
0.361290
0.356598
0.368915
0.377126
0.371848
0.391789
0.391202
0.405279
0.406452
0.405865
0.407038
0.405279
0.414076
0.416422
0.421114
0.411730
0.412903
0.426393
0.448680
0.453959
0.456305
0.483284
0.491496
0.478006
0.472727
0.460997
0.465103
0.428739
0.396481
0.410557
0.414663
0.418768
0.411144
0.418182
0.420528
0.598827
0.598827
0.598827
0.598827
0.466862
0.177713
0.348387
0.409384
0.418182
0.414663
0.419941
0.432845
0.442229
0.456305
0.468622
0.478592
0.499707
0.505572
0.553666
0.575367
0.597654
0.598827
0.598827
0.598827
0.598827
0.598827
0.598240
0.537243
0.476246
0.431672
0.395894
0.368328
0.347801
0.340176
0.339003
0.337830
0.339003
0.348974
0.351320
0.358358
0.362463
0.370674
0.374780
0.377126
0.381818
0.382991
0.389443
0.386510
0.391202
0.392962
0.396481
0.393548
0.401760
0.402346
0.405279
0.414663
0.415249
0.422874
0.445161
0.453959
0.465689
0.490323
0.491496
0.496774
0.490323
0.468035
0.460411
0.431085
0.419941
0.423460
0.421114
0.420528
0.415836
0.420528
0.377713
0.562463
0.598827
0.598827
0.598827
0.482111
0.156598
0.347214
0.402933
0.403519
0.408211
0.418182
0.427566
0.439296
0.453959
0.470968
0.478592
0.491496
0.512024
0.541936
0.563636
0.591202
0.598827
0.598827
0.598827
0.598827
0.598827
0.598827
0.550147
0.491496
0.446921
0.417009
0.388270
0.373607
0.370674
0.364809
0.367155
0.374194
0.381232
0.384751
0.391789
0.398240
0.400000
0.403519
0.400000
0.408211
0.407038
0.400587
0.388856
0.397654
0.401173
0.400587
0.400587
0.400000
0.404106
0.400000
0.399413
0.404692
0.407625
0.404692
0.399413
0.411144
0.408798
0.408798
0.407625
0.405279
0.408211
0.411144
0.415249
0.418182
0.418182
0.418768
0.415249
0.420528
0.428153
0.451613
0.465103
0.469795
0.483871
0.491496
0.489150
0.490909
0.473900
0.469208
0.451026
0.423460
0.426979
0.423460
0.419355
0.432845
0.436364
0.398827
0.476833
0.598827
0.598827
0.598827
0.598827
0.164223
0.318475
0.421114
0.432258
0.434018
0.443402
0.447507
0.458651
0.476246
0.484457
0.499120
0.508504
0.526100
0.544868
0.562463
0.588270
0.598827
0.598827
0.598827
0.598827
0.598827
0.598827
0.598827
0.561290
0.509091
0.460997
0.422287
0.401173
0.389443
0.377126
0.375367
0.378886
0.384751
0.391202
0.396481
0.397654
0.391789
0.396481
0.409971
0.404692
0.400587
0.398827
0.397067
0.398827
0.396481
0.398827
0.398827
0.397654
0.402346
0.400587
0.400000
0.410557
0.405865
0.403519
0.398827
0.411144
0.406452
0.404692
0.406452
0.417009
0.412317
0.411730
0.418182
0.419355
0.417595
0.419355
0.428739
0.446921
0.459238
0.462757
0.482698
0.496774
0.485631
0.495601
0.476833
0.466862
0.452199
0.425806
0.411144
0.417009
0.417009
0.421701
0.419941
0.395894
0.425806
0.598827
0.598827
0.598827
0.598827
0.177713
0.253959
0.390616
0.408211
0.408211
0.415249
0.424047
0.442229
0.455718
0.461584
0.475660
0.497947
0.514370
0.525513
0.547214
0.573021
0.597067
0.598827
0.598827
0.598827
0.598827
0.598827
0.598827
0.550147
0.493255
0.447507
0.407625
0.391789
0.378299
0.368328
0.356012
0.351320
0.367742
0.364809
0.362463
0.367155
0.375953
0.375953
0.380645
0.385337
0.383578
0.381818
0.384164
0.389443
0.384751
0.390616
0.390029
0.387683
0.391202
0.386510
0.392962
0.398240
0.396481
0.402933
0.399413
0.404692
0.398240
0.408798
0.413490
0.409384
0.410557
0.414076
0.420528
0.426979
0.426979
0.427566
0.442229
0.452786
0.455132
0.472141
0.496188
0.499707
0.490909
0.500880
0.476246
0.476833
0.447507
0.426393
0.426979
0.430499
0.426393
0.444575
0.434018
0.408211
0.598827
0.598827
0.598827
0.598827
0.310850
0.219941
0.394721
0.439296
0.446334
0.450440
0.448094
0.453372
0.473900
0.491496
0.502639
0.524340
0.540176
0.545455
0.562463
0.592375
0.598827
0.598827
0.598827
0.598827
0.598827
0.598827
0.598827
0.585337
0.528446
0.470381
0.432845
0.406452
0.384751
0.382405
0.374780
0.377126
0.381818
0.381818
0.380645
0.391202
0.392962
0.395308
0.397654
0.391202
0.401173
0.400000
0.403519
0.398827
0.402346
0.402346
0.405865
0.391202
0.398240
0.400587
0.409384
0.401173
0.401173
0.407625
0.408798
0.412903
0.414076
0.415836
0.418182
0.419355
0.417009
0.418768
0.424633
0.421701
0.426979
0.430499
0.423460
0.432258
0.447507
0.459238
0.460997
0.474487
0.488563
0.502053
0.507331
0.507918
0.496774
0.481525
0.466276
0.436950
0.421114
0.424633
0.428739
0.426393
0.425806
0.400000
0.482698
0.598827
0.598827
0.598827
0.598827
0.154839
0.307918
0.413490
0.422874
0.432258
0.434604
0.449853
0.449267
0.458065
0.477419
0.500293
0.506745
0.524340
0.542522
0.558944
0.583578
0.598827
0.598827
0.598827
0.598827
0.598827
0.598827
0.598827
0.542522
0.480938
0.434018
0.404692
0.385924
0.371261
0.360704
0.359531
0.358358
0.361290
0.368328
0.373607
0.381818
0.384751
0.389443
0.388270
0.387097
0.381818
0.390616
0.392962
0.391789
0.395308
0.398240
0.392962
0.394135
0.392375
0.392962
0.391202
0.395308
0.398827
0.402346
0.412903
0.404692
0.406452
0.404106
0.403519
0.408211
0.408211
0.404692
0.413490
0.422874
0.417595
0.415249
0.413490
0.427566
0.426393
0.443988
0.455718
0.460997
0.482111
0.499120
0.491496
0.500293
0.472727
0.462170
0.448094
0.421114
0.415836
0.421114
0.421701
0.424633
0.415249
0.379472
0.597067
0.598827
0.598827
0.598827
0.359531
0.176540
0.357771
0.424047
0.425806
0.429912
0.442229
0.446334
0.456305
0.469795
0.473314
0.490323
0.506745
0.523167
0.539003
0.563050
0.579472
0.598827
0.598827
0.598827
0.598827
0.598827
0.598827
0.585337
0.525513
0.472141
0.429912
0.400000
0.384751
0.371848
0.373021
0.374780
0.365396
0.372434
0.378886
0.382405
0.388856
0.394135
0.395894
0.391202
0.393548
0.394135
0.395308
0.395894
0.399413
0.391789
0.391202
0.400587
0.397654
0.406452
0.402933
0.408211
0.412903
0.405865
0.412903
0.415249
0.414076
0.418182
0.411144
0.415836
0.422287
0.427566
0.431085
0.424633
0.427566
0.427566
0.427566
0.443988
0.460997
0.474487
0.478592
0.502639
0.499120
0.500880
0.479765
0.466862
0.453372
0.425806
0.417595
0.422287
0.423460
0.426979
0.429326
0.395894
0.522581
0.598827
0.598827
0.598827
0.509091
0.156012
0.320821
0.415249
0.426393
0.430499
0.436364
0.439296
0.452786
0.466862
0.468622
0.482698
0.502053
0.523754
0.544282
0.571261
0.592962
0.598827
0.598827
0.598827
0.598827
0.598827
0.598827
0.598827
0.546041
0.492082
0.446921
0.403519
0.379472
0.370088
0.368915
0.364223
0.367742
0.370088
0.373021
0.378299
0.385337
0.388856
0.394721
0.388856
0.391202
0.392375
0.392375
0.394721
0.390616
0.397654
0.395308
0.396481
0.405279
0.411730
0.406452
0.404106
0.412317
0.407625
0.415249
0.414076
0.422287
0.421701
0.414076
0.429326
0.424047
0.422874
0.431085
0.429912
0.439296
0.452786
0.463930
0.470381
0.485631
0.498534
0.497361
0.512024
0.487977
0.471554
0.454545
0.431085
0.425806
0.426979
0.429326
0.429912
0.425220
0.396481
0.598827
0.598827
0.598827
0.598827
0.351906
0.188270
0.365982
0.425220
0.423460
0.434018
0.452199
0.451026
0.460997
0.477419
0.486804
0.506158
0.515543
0.531965
0.559531
0.580645
0.598827
0.598827
0.598827
0.598827
0.598827
0.598827
0.598827
0.593548
0.537830
0.479765
0.441642
0.416422
0.391202
0.375953
0.378299
0.377126
0.377713
0.385924
0.391789
0.394721
0.397067
0.400587
0.399413
0.400587
0.401173
0.395894
0.394135
0.393548
0.395308
0.403519
0.402346
0.395894
0.402346
0.399413
0.405279
0.407625
0.407038
0.404106
0.412903
0.416422
0.422874
0.421114
0.424047
0.438710
0.446334
0.460411
0.469795
0.495601
0.487390
0.496774
0.462757
0.459824
0.443988
0.421701
0.412903
0.412317
0.412317
0.411730
0.409971
0.387097
0.598827
0.598827
0.598827
0.598827
0.319062
0.164223
0.347801
0.411730
0.408211
0.410557
0.418182
0.426393
0.431085
0.451613
0.463343
0.476246
0.491496
0.507331
0.529032
0.547214
0.577126
0.598827
0.598827
0.598827
0.598827
0.598827
0.598827
0.556598
0.505572
0.443402
0.409384
0.380645
0.362463
0.355425
0.357185
0.350147
0.359531
0.365982
0.367155
0.370674
0.367155
0.377713
0.379472
0.378886
0.381818
0.385337
0.385924
0.387683
0.384751
0.393548
0.388270
0.394721
0.395894
0.392375
0.402933
0.404106
0.408798
0.401760
0.409971
0.407625
0.407625
0.408798
0.402933
0.402346
0.409384
0.422874
0.434018
0.456305
0.462170
0.482111
0.495015
0.487977
0.490909
0.460411
0.456892
0.428153
0.412317
0.411144
0.407038
0.415836
0.417595
0.392962
0.441642
0.598827
0.598827
0.598827
0.598827
0.164809
0.272141
0.397067
0.408798
0.415836
0.423460
0.424047
0.439883
0.448094
0.463930
0.472727
0.493842
0.516716
0.531965
0.550733
0.571261
0.596481
0.598827
0.598827
0.598827
0.598827
0.598827
0.598827
0.547801
0.492669
0.445161
0.408211
0.390616
0.374194
0.364223
0.365982
0.367742
0.361290
0.374780
0.382405
0.384751
0.388856
0.393548
0.389443
0.389443
0.389443
0.391789
0.394135
0.397067
0.390029
0.385337
0.402933
0.407038
0.406452
0.406452
0.407625
0.409971
0.411730
0.412317
0.413490
0.417009
0.417595
0.421701
0.422287
0.425220
0.438123
0.442229
0.458651
0.471554
0.494428
0.496188
0.492669
0.490909
0.468622
0.465103
0.439883
0.426393
0.427566
0.432258
0.437537
0.435777
0.409971
0.465689
0.598827
0.598827
0.598827
0.598827
0.203519
0.287390
0.406452
0.434018
0.436364
0.445161
0.455132
0.461584
0.465689
0.475073
0.495015
0.503812
0.527273
0.543109
0.567742
0.591202
0.598827
0.598827
0.598827
0.598827
0.598827
0.598827
0.598827
0.560117
0.495015
0.455718
0.417595
0.397654
0.388270
0.384751
0.373021
0.379472
0.378886
0.380645
0.392962
0.397067
0.395308
0.394721
0.397654
0.408211
0.407038
0.404692
0.398827
0.402346
0.407625
0.404106
0.398827
0.404692
0.405865
0.415836
0.409384
0.408798
0.406452
0.407625
0.417009
0.415836
0.414663
0.428739
0.445161
0.455718
0.464516
0.477419
0.504399
0.494428
0.500880
0.478006
0.465103
0.455718
0.426979
0.426979
0.424047
0.423460
0.417009
0.429326
0.407038
0.540176
0.598827
0.598827
0.598827
0.572434
0.160117
0.321994
0.418768
0.427566
0.428153
0.430499
0.441056
0.453959
0.463343
0.480938
0.486217
0.499120
0.524340
0.539003
0.565396
0.587097
0.598827
0.598827
0.598827
0.598827
0.598827
0.598827
0.578886
0.514370
0.459238
0.413490
0.387683
0.373607
0.362463
0.353079
0.355425
0.360117
0.354252
0.350733
0.370674
0.377126
0.380059
0.381232
0.385337
0.391202
0.387683
0.390029
0.378299
0.384164
0.397654
0.395894
0.391202
0.387097
0.390029
0.387097
0.384751
0.394135
0.397654
0.400587
0.392962
0.397067
0.405865
0.410557
0.416422
0.436950
0.443402
0.451613
0.476246
0.470968
0.475073
0.478592
0.451026
0.438123
0.424047
0.414076
0.411730
0.409971
0.415249
0.413490
0.408211
0.426979
0.598827
0.598827
0.598827
0.598827
0.213490
0.243402
0.390616
0.418768
0.439296
0.431085
0.442815
0.434604
0.429912
0.449267
0.465689
0.482698
0.517889
0.520235
0.545455
0.576540
0.598240
0.598827
0.598827
0.598827
0.598827
0.598827
0.598827
0.566569
0.493842
0.426393
0.407625
0.356012
0.330205
0.398827
0.373607
0.365982
0.428739
0.379472
0.336657
0.350147
0.360117
0.389443
0.449853
0.392962
0.378886
0.397654
0.364223
0.426979
0.378886
0.417009
0.448680
0.354839
0.387097
0.373607
0.371261
0.382405
0.412317
0.361290
0.461584
0.422287
0.266862
0.377713
0.453959
0.345455
0.449267
0.360117
0.455132
0.426393
0.315543
0.370088
0.395894
0.426393
0.443988
0.536070
0.437537
0.335484
0.369501
0.351906
0.404106
0.365396
0.385337
0.338416
0.391202
0.321408
0.299707
0.500880
0.598827
0.598827
0.598827
0.404692
0.109091
0.278592
0.375953
0.401173
0.391202
0.354252
0.398240
0.506158
0.413490
0.385337
0.458065
0.488563
0.509091
0.533724
0.553079
0.585337
0.598827
0.598827
0.598827
0.598827
0.598827
0.598827
0.519648
0.495015
0.479765
0.418768
0.398827
0.385924
0.431672
0.371261
0.423460
0.418768
0.441056
0.363636
0.384751
0.415249
0.445748
0.479179
0.435777
0.477419
0.476246
0.438123
0.452786
0.420528
0.431085
0.446334
0.451026
0.454545
0.507331
0.443402
0.426979
0.453959
0.465689
0.462170
0.466276
0.470968
0.466862
0.469208
0.468622
0.467449
0.480938
0.497361
0.499707
0.507331
0.519062
0.524927
0.528446
0.534897
0.490323
0.499120
0.468622
0.458651
0.456892
0.462170
0.458065
0.450440
0.442815
0.425220
0.598827
0.598827
0.598827
0.598827
0.495015
0.198240
0.368915
0.431085
0.438710
0.447507
0.452786
0.467449
0.460997
0.478592
0.485631
0.498534
0.515543
0.529032
0.554839
0.575953
0.598827
0.598827
0.598827
0.598827
0.598827
0.598827
0.598827
0.577126
0.509677
0.456892
0.432258
0.394135
0.375953
0.375953
0.368915
0.364223
0.368915
0.373607
0.377713
0.388856
0.390616
0.400587
0.404692
0.396481
0.409384
0.414076
0.410557
0.411730
0.407038
0.415836
0.407038
0.407625
0.406452
0.402933
0.395308
0.414663
0.411730
0.407625
0.401173
0.416422
0.421114
0.411730
0.411144
0.414663
0.411730
0.414076
0.421701
0.418182
0.411144
0.424633
0.422874
0.419941
0.429326
0.428739
0.437537
0.454545
0.454545
0.461584
0.483871
0.500880
0.484457
0.499120
0.479765
0.472141
0.457478
0.432845
0.422874
0.418768
0.425220
0.425220
0.431085
0.397654
0.394135
0.598827
0.598827
0.598827
0.598827
0.279179
0.241056
0.399413
0.425220
0.426979
0.437537
0.431672
0.441056
0.455132
0.463930
0.487977
0.517302
0.533138
0.555425
0.576540
0.598240
0.598827
0.598827
0.598827
0.598827
0.598827
0.598827
0.598827
0.576540
0.505572
0.453372
0.416422
0.381818
0.375953
0.371848
0.364809
0.354839
0.358944
0.366569
0.361290
0.366569
0.362463
0.370674
0.375367
0.378299
0.377126
0.377713
0.382991
0.378299
0.379472
0.378299
0.383578
0.380645
0.384751
0.381818
0.382991
0.385924
0.386510
0.385924
0.391202
0.384751
0.392375
0.394135
0.394721
0.397654
0.403519
0.402933
0.405865
0.409971
0.407625
0.402933
0.416422
0.421114
0.405279
0.425220
0.425806
0.429326
0.454545
0.466276
0.478006
0.491496
0.503812
0.497361
0.499120
0.476246
0.473900
0.459238
0.436950
0.436364
0.437537
0.436950
0.439296
0.445748
0.431085
0.398240
0.598827
0.598827
0.598827
0.598827
0.333138
0.236950
0.392962
0.448094
0.442815
0.446921
0.452786
0.467449
0.467449
0.486804
0.495015
0.505572
0.516716
0.529619
0.556012
0.575367
0.598827
0.598827
0.598827
0.598827
0.598827
0.598827
0.598827
0.591789
0.517889
0.468035
0.434018
0.404106
0.380645
0.375367
0.369501
0.363636
0.366569
0.370088
0.368328
0.380059
0.380059
0.375953
0.375367
0.381818
0.381232
0.385924
0.390616
0.395894
0.396481
0.399413
0.397654
0.402346
0.405279
0.406452
0.411730
0.405279
0.402346
0.407625
0.413490
0.413490
0.400000
0.409384
0.421114
0.415249
0.416422
0.422287
0.419355
0.419355
0.425220
0.423460
0.428739
0.428739
0.427566
0.434018
0.439883
0.441056
0.450440
0.466862
0.473314
0.482111
0.497947
0.507331
0.506745
0.505572
0.482111
0.476246
0.451026
0.431085
0.428153
0.422874
0.431672
0.439296
0.437537
0.402346
0.524927
0.598827
0.598827
0.598827
0.565396
0.174194
0.330205
0.419355
0.433431
0.435191
0.447507
0.459824
0.469795
0.470381
0.492669
0.504399
0.512024
0.531378
0.551906
0.571848
0.590029
0.598827
0.598827
0.598827
0.598827
0.598827
0.598827
0.598827
0.553666
0.489150
0.434604
0.402346
0.376540
0.364809
0.367742
0.365982
0.361290
0.364223
0.372434
0.373021
0.378886
0.384164
0.383578
0.390616
0.391789
0.395894
0.396481
0.390616
0.392962
0.385337
0.392375
0.398240
0.400587
0.400000
0.404106
0.404692
0.399413
0.404106
0.404692
0.407038
0.404692
0.407625
0.411730
0.413490
0.414663
0.412317
0.414076
0.415249
0.417595
0.418182
0.427566
0.422874
0.425220
0.424633
0.425220
0.436950
0.452199
0.459824
0.468035
0.495015
0.514956
0.499707
0.514370
0.483871
0.477419
0.462757
0.438123
0.436364
0.438123
0.435777
0.443988
0.442815
0.408211
0.511437
0.598827
0.598827
0.598827
0.598827
0.184751
0.296774
0.416422
0.435777
0.442229
0.446334
0.453372
0.460997
0.472727
0.486217
0.498534
0.509677
0.529032
0.543109
0.568915
0.597654
0.598827
0.598827
0.598827
0.598827
0.598827
0.598827
0.598827
0.557185
0.503226
0.451613
0.411730
0.389443
0.378299
0.365396
0.367155
0.370674
0.367155
0.367155
0.369501
0.371848
0.374780
0.377713
0.379472
0.376540
0.389443
0.388856
0.394135
0.385924
0.387097
0.384164
0.390029
0.392962
0.404692
0.398240
0.402346
0.406452
0.401173
0.407038
0.411144
0.414663
0.405279
0.413490
0.416422
0.421114
0.421114
0.432845
0.446921
0.452199
0.462757
0.475660
0.500293
0.487390
0.496188
0.473314
0.469208
0.453959
0.428739
0.418182
0.425806
0.421701
0.425220
0.427566
0.383578
0.470381
0.598827
0.598827
0.598827
0.598827
0.150733
0.288563
0.402933
0.417595
0.424047
0.434018
0.433431
0.446334
0.451613
0.480938
0.486217
0.499120
0.522581
0.543109
0.562463
0.597654
0.598827
0.598827
0.598827
0.598827
0.598827
0.598827
0.598827
0.544282
0.484457
0.438710
0.404106
0.379472
0.367155
0.364809
0.362463
0.363050
0.368915
0.375953
0.377126
0.375367
0.380059
0.384164
0.387097
0.386510
0.391789
0.399413
0.394721
0.394721
0.386510
0.394721
0.401173
0.404106
0.398240
0.394721
0.402346
0.407625
0.402346
0.408211
0.412317
0.403519
0.407625
0.419355
0.416422
0.409384
0.416422
0.429326
0.446921
0.455132
0.469208
0.476833
0.502639
0.490323
0.493842
0.478006
0.463930
0.448094
0.418182
0.417009
0.415249
0.418182
0.418768
0.419941
0.387097
0.506745
0.598827
0.598827
0.598827
0.598827
0.149560
0.320235
0.419355
0.422874
0.425806
0.432258
0.448094
0.459824
0.472727
0.479179
0.499707
0.506158
0.526100
0.548974
0.570088
0.597067
0.598827
0.598827
0.598827
0.598827
0.598827
0.598827
0.598827
0.550733
0.492669
0.436364
0.413490
0.394135
0.377713
0.356598
0.353666
0.361877
0.353079
0.360704
0.374194
0.370674
0.368915
0.377713
0.370674
0.373021
0.385337
0.387683
0.386510
0.384751
0.384751
0.389443
0.385924
0.390029
0.391202
0.398240
0.392375
0.391202
0.401760
0.400000
0.400000
0.398827
0.408798
0.405865
0.408211
0.432845
0.436950
0.453959
0.460411
0.496774
0.478592
0.486217
0.461584
0.453959
0.439883
0.421114
0.418182
0.414076
0.415249
0.413490
0.407625
0.390029
0.481525
0.598827
0.598827
0.598827
0.598827
0.175953
0.257478
0.394721
0.413490
0.412317
0.421114
0.434604
0.446334
0.455132
0.468622
0.478592
0.496188
0.512610
0.532551
0.549560
0.575367
0.598827
0.598827
0.598827
0.598827
0.598827
0.598827
0.598827
0.598827
0.439883
0.404692
0.401173
0.371261
0.375367
0.470381
0.456305
0.268622
0.248094
0.297947
0.316716
0.342522
0.334897
0.324927
0.351320
0.343695
0.348974
0.346628
0.344868
0.347214
0.347801
0.348387
0.354252
0.351906
0.346628
0.353079
0.360704
0.358944
0.357185
0.372434
0.371848
0.389443
0.411144
0.428153
0.435777
0.468035
0.452786
0.446334
0.460411
0.448680
0.442229
0.450440
0.384164
0.360704
0.405279
0.374780
0.380645
0.391202
0.365396
0.598827
0.598827
0.598827
0.598827
0.355425
0.177713
0.363636
0.400000
0.410557
0.419355
0.427566
0.432258
0.448680
0.469208
0.474487
0.484457
0.520235
0.530205
0.548974
0.575367
0.598827
0.598827
0.598827
0.598827
0.598827
0.598827
0.598240
0.570088
0.522581
0.452786
0.438710
0.409384
0.374780
0.371848
0.367155
0.361290
0.362463
0.379472
0.369501
0.365396
0.376540
0.375953
0.395894
0.385337
0.377713
0.398240
0.440469
0.394721
0.380059
0.397067
0.395894
0.389443
0.395894
0.402346
0.390029
0.387683
0.397654
0.401173
0.401173
0.412317
0.438123
0.443988
0.462757
0.469208
0.487977
0.489736
0.500880
0.472141
0.469795
0.455718
0.441056
0.434604
0.427566
0.438123
0.436950
0.437537
0.394135
0.542522
0.598827
0.598827
0.598827
0.598827
0.169501
0.337830
0.424633
0.434018
0.441642
0.441642
0.448680
0.470381
0.479179
0.492082
0.500880
0.517889
0.541349
0.554839
0.576540
0.598827
0.598827
0.598827
0.598827
0.598827
0.598827
0.598827
0.590616
0.535484
0.482698
0.435777
0.409384
0.386510
0.380645
0.386510
0.382405
0.380645
0.369501
0.377126
0.385337
0.369501
0.396481
0.408798
0.404106
0.422287
0.408798
0.413490
0.408211
0.419941
0.407038
0.416422
0.444575
0.445161
0.435777
0.438710
0.442229
0.436364
0.445161
0.447507
0.444575
0.450440
0.461584
0.497361
0.494428
0.483871
0.513783
0.512610
0.522581
0.489150
0.480352
0.467449
0.443402
0.432845
0.420528
0.423460
0.439883
0.440469
0.423460
0.432845
0.598827
0.598827
0.598827
0.598827
0.263343
0.260411
0.412903
0.444575
0.452786
0.449267
0.458065
0.465103
0.474487
0.482111
0.492082
0.502053
0.525513
0.546628
0.566569
0.590029
0.598827
0.598827
0.598827
0.598827
0.598827
0.598827
0.598827
0.536070
0.483871
0.436364
0.400587
0.371848
0.364809
0.364223
0.364809
0.368915
0.360117
0.363636
0.361290
0.358358
0.373607
0.378299
0.376540
0.379472
0.383578
0.381818
0.387683
0.396481
0.397067
0.395894
0.380059
0.379472
0.389443
0.384751
0.395308
0.398827
0.400587
0.395308
0.400587
0.394135
0.396481
0.429912
0.445748
0.456305
0.472727
0.477419
0.476246
0.462757
0.445161
0.432258
0.415249
0.409971
0.401760
0.416422
0.409384
0.407038
0.392962
0.448680
0.598827
0.598827
0.598827
0.598827
0.163050
0.197654
0.344868
0.392962
0.387097
0.402933
0.415249
0.417009
0.430499
0.434018
0.443988
0.465689
0.489736
0.509677
0.525513
0.550147
0.573607
0.598827
0.598827
0.598827
0.598827
0.598827
0.598827
0.547801
0.488563
0.450440
0.419941
0.395894
0.374194
0.381818
0.375367
0.373607
0.377126
0.381232
0.378886
0.391202
0.401760
0.394721
0.399413
0.403519
0.401173
0.391789
0.405279
0.405279
0.409971
0.418768
0.420528
0.427566
0.420528
0.429326
0.426979
0.420528
0.424047
0.430499
0.428739
0.452786
0.460411
0.469208
0.483871
0.513197
0.497947
0.507918
0.483284
0.464516
0.452199
0.421701
0.413490
0.426393
0.420528
0.422874
0.425806
0.407038
0.414076
0.598827
0.598827
0.598827
0.598827
0.214076
0.235191
0.398827
0.422287
0.424633
0.430499
0.435191
0.438710
0.451026
0.467449
0.485044
0.502639
0.510850
0.530792
0.549560
0.573607
0.598827
0.598827
0.598827
0.598827
0.598827
0.598827
0.598827
0.540176
0.487390
0.435777
0.397654
0.373607
0.371848
0.363050
0.362463
0.366569
0.366569
0.370088
0.361877
0.362463
0.374194
0.378886
0.380059
0.390616
0.388270
0.394721
0.393548
0.405865
0.405865
0.398240
0.394135
0.407625
0.408798
0.405865
0.411730
0.414663
0.409384
0.411144
0.417009
0.407625
0.428739
0.445161
0.458651
0.473900
0.499120
0.499120
0.503812
0.504399
0.472727
0.465103
0.436364
0.425220
0.425806
0.417595
0.423460
0.435777
0.424633
0.398240
0.547214
0.598827
0.598827
0.598827
0.497947
0.168915
0.352493
0.433431
0.435777
0.442815
0.455132
0.456892
0.473900
0.482698
0.490323
0.507918
0.525513
0.538416
0.555425
0.578299
0.598827
0.598827
0.598827
0.598827
0.598827
0.598827
0.598827
0.598827
0.534897
0.480352
0.445161
0.413490
0.399413
0.387097
0.374194
0.371848
0.373607
0.368328
0.378299
0.390029
0.387683
0.395308
0.398240
0.400587
0.391789
0.388270
0.392375
0.400000
0.408798
0.406452
0.385924
0.412317
0.386510
0.362463
0.364809
0.332551
0.339589
0.372434
0.380645
0.398827
0.413490
0.425220
0.445161
0.458065
0.464516
0.479179
0.444575
0.427566
0.411730
0.387097
0.395308
0.391789
0.385924
0.385924
0.402933
0.399413
0.503226
0.598827
0.598827
0.598827
0.598827
0.143695
0.265689
0.409384
0.429326
0.432845
0.460411
0.463930
0.469795
0.486217
0.491496
0.507918
0.555425
0.570675
0.584164
0.598827
0.598827
0.598827
0.598827
0.598827
0.598827
0.598827
0.598827
0.598827
0.550147
0.510264
0.458065
0.429912
0.423460
0.424633
0.384164
0.367742
0.388856
0.387097
0.357771
0.331378
0.354252
0.405865
0.410557
0.412903
0.392375
0.396481
0.395894
0.400587
0.404106
0.400587
0.418182
0.436364
0.436950
0.430499
0.411144
0.412903
0.489736
0.564809
0.451613
0.401760
0.421114
0.467449
0.459238
0.449853
0.441056
0.448094
0.429326
0.421114
0.393548
0.370674
0.361290
0.373607
0.393548
0.392962
0.443402
0.598827
0.598827
0.598827
0.598827
0.207625
0.285631
0.413490
0.446921
0.438123
0.421701